t [s],Step_Time(s),I [A],V [V]
0,120.0068238,0,2.593736887
5.005483,5.005237761,-1.099415302,2.890427828
10.013867,10.01362257,-1.099595666,2.936593533
15.021007,15.02076203,-1.099595666,2.973526001
20.025019,20.02477369,-1.099595666,3.003995419
25.034581,25.03433609,-1.099595666,3.031386852
30.040744,30.04049852,-1.099415302,3.055700779
35.042995,35.04275015,-1.099415302,3.077244759
40.047472,40.04722762,-1.099415302,3.097249746
45.050452,45.05020682,-1.099595666,3.116023779
50.059696,50.05945163,-1.099595666,3.132335663
55.065098,55.06485299,-1.099595666,3.14803195
60.072213,60.0719682,-1.099595666,3.16280508
65.076498,65.07625357,-1.099595666,3.176347017
70.080745,70.08050045,-1.099415302,3.188965559
75.085995,75.08574976,-1.099595666,3.201276302
80.092428,80.0921832,-1.099595666,3.212663889
85.10155,85.10130559,-1.099415302,3.223435879
90.10275,90.10250474,-1.099595666,3.233592272
95.109999,95.10975391,-1.099234819,3.243440866
100.11837,100.1181252,-1.099776149,3.252981901
105.123493,105.1232487,-1.099595666,3.261907101
110.123775,110.1235301,-1.099595666,3.27052474
115.123994,115.1237491,-1.099595666,3.278834581
120.130196,120.1299508,-1.099595666,3.287144423
125.138559,125.1383141,-1.099415302,3.294530869
130.147718,130.1474738,-1.099415302,3.302225113
135.153996,135.1537513,-1.099595666,3.308688402
140.156278,140.1560334,-1.099415302,3.316074848
145.164499,145.1642542,-1.099595666,3.322845697
150.168777,150.1685322,-1.099415302,3.329308987
155.176126,155.1758811,-1.099415302,3.335772038
160.179327,160.1790824,-1.099595666,3.341927528
165.180495,165.1802496,-1.099415302,3.347467422
170.183744,170.1834991,-1.099415302,3.353622913
175.191021,175.1907756,-1.099595666,3.359162807
180.191248,180.1910027,-1.099415302,3.364702702
185.200521,185.200276,-1.099595666,3.369934797
190.203514,190.2032687,-1.099595666,3.375166893
195.207996,195.2077512,-1.099595666,3.380398989
200.217212,200.2169671,-1.099595666,3.385323286
205.223508,205.2232635,-1.099415302,3.389939785
210.228857,210.2286125,-1.099595666,3.394248486
215.232945,215.2327004,-1.099595666,3.398865223
220.239218,220.2389725,-1.099595666,3.403481722
225.245542,225.245297,-1.099595666,3.407790422
230.253741,230.2534975,-1.099595666,3.411791563
235.263091,235.2628466,-1.099415302,3.415484667
240.268249,240.2680035,-1.099776149,3.419793606
245.270491,245.2702459,-1.099595666,3.422871351
250.277688,250.2774427,-1.099595666,3.426256657
255.283015,255.2827702,-1.099776149,3.429026604
260.288245,260.2879995,-1.099415302,3.431488752
265.291494,265.2912489,-1.099415302,3.433950901
270.300637,270.3003921,-1.099595666,3.435797691
275.308943,275.3086984,-1.099415302,3.437336445
280.317276,280.3170308,-1.099415302,3.438875437
285.322496,285.3222505,-1.099595666,3.440106392
290.326517,290.3262721,-1.099595666,3.441337585
295.333001,295.3327564,-1.099595666,3.441952944
300.334278,300.3340329,-1.099415302,3.443184137
305.342498,305.342253,-1.099595666,3.443799734
310.346764,310.3465187,-1.099595666,3.444415331
315.353016,315.3527708,-1.099415302,3.445030689
320.361244,320.3609986,-1.099415302,3.445646286
325.369591,325.3693464,-1.099415302,3.446261883
330.373779,330.3735348,-1.099415302,3.44687748
335.375073,335.3748286,-1.099595666,3.447492838
340.375287,340.3750431,-1.099415302,3.448108435
345.376565,345.37632,-1.099595666,3.448724031
350.382757,350.3825124,-1.099595666,3.449339628
355.387993,355.3877479,-1.099595666,3.449954987
360.394233,360.3939877,-1.099595666,3.450570583
365.397607,365.3973623,-1.099595666,3.45118618
370.405889,370.4056435,-1.099415302,3.451493979
375.411987,375.4117424,-1.099415302,3.452109575
380.419209,380.4189635,-1.099415302,3.452724934
385.423511,385.4232662,-1.099415302,3.45334053
390.429783,390.4295383,-1.099415302,3.453956127
395.437029,395.436784,-1.099415302,3.454263926
400.438241,400.4379967,-1.099415302,3.455187082
405.443487,405.4432421,-1.099595666,3.455802679
410.448735,410.4484903,-1.099415302,3.456110477
415.45399,415.4537454,-1.099595666,3.456726074
420.454196,420.4539509,-1.099415302,3.457649469
425.463499,425.4632543,-1.099595666,3.458264828
430.469735,430.4694898,-1.099415302,3.458572626
435.472996,435.4727512,-1.099595666,3.459188223
440.478373,440.4781287,-1.099595666,3.460111618
445.480457,445.4802117,-1.099595666,3.460726976
450.489796,450.4895505,-1.099415302,3.461342573
455.490998,455.4907527,-1.099415302,3.46195817
460.498228,460.4979838,-1.099595666,3.462573767
465.507716,465.5074719,-1.099595666,3.463189125
470.514782,470.5145374,-1.099415302,3.463804722
475.521982,475.5217373,-1.099595666,3.464728117
480.529205,480.5289599,-1.099595666,3.465651512
485.532466,485.5322213,-1.099595666,3.465959072
490.538769,490.5385235,-1.099595666,3.46626687
495.547983,495.5477383,-1.099595666,3.467805862
500.549264,500.5490194,-1.099595666,3.468421221
505.55544,505.5551953,-1.099595666,3.469036818
510.562742,510.5624972,-1.099415302,3.469652414
515.569005,515.5687601,-1.099595666,3.470575809
520.576007,520.5757626,-1.099415302,3.471191168
525.582487,525.5822418,-1.099776149,3.472422361
530.582823,530.5825783,-1.099415302,3.47273016
535.585023,535.5847779,-1.099595666,3.473653316
540.594219,540.5939742,-1.099415302,3.474268913
545.59848,545.598235,-1.099415302,3.47488451
550.603732,550.6034873,-1.099595666,3.475807905
555.608082,555.607837,-1.099595666,3.476731062
560.610292,560.6100474,-1.099415302,3.477654457
565.615549,565.6153041,-1.099415302,3.478270054
570.623732,570.6234872,-1.099595666,3.479193211
575.624991,575.6247456,-1.099415302,3.479808807
580.627285,580.6270399,-1.099595666,3.480732203
585.632497,585.6322527,-1.099415302,3.481040001
590.637685,590.6374396,-1.099415302,3.481963158
595.643258,595.6430131,-1.099595666,3.482886553
600.650277,600.6500324,-1.099595666,3.48350215
605.652518,605.6522729,-1.099415302,3.484425306
610.656691,610.6564466,-1.099595666,3.485040903
615.663001,615.6627561,-1.099415302,3.4856565
620.667278,620.667033,-1.099595666,3.486887455
625.676538,625.6762936,-1.099595666,3.487503052
630.680767,630.680522,-1.099415302,3.488118649
635.687298,635.6870536,-1.099415302,3.488734245
640.68828,640.6880353,-1.099595666,3.489657402
645.692529,645.6922837,-1.099595666,3.490272999
650.700716,650.700471,-1.099776149,3.491196394
655.706008,655.7057634,-1.099595666,3.491811991
660.713228,660.7129833,-1.099595666,3.492427349
665.719512,665.7192667,-1.099595666,3.493042946
670.726693,670.7264481,-1.099595666,3.493966341
675.73216,675.7319157,-1.099595666,3.494274139
680.738243,680.737998,-1.099595666,3.495505095
685.741489,685.7412448,-1.099595666,3.495812893
690.748691,690.7484462,-1.099415302,3.49642849
695.75098,695.7507352,-1.099595666,3.497351885
700.754223,700.7539781,-1.099595666,3.497967243
705.76048,705.7602348,-1.099595666,3.498275042
710.766684,710.7664392,-1.099415302,3.498890638
715.771014,715.7707685,-1.099415302,3.499506235
720.774267,720.7740218,-1.099595666,3.500429392
725.778523,725.7782783,-1.099415302,3.50073719
730.786848,730.7866038,-1.099415302,3.501352787
735.794992,735.7947468,-1.099595666,3.502276182
740.802241,740.801996,-1.099595666,3.502891541
745.806446,745.8062013,-1.099415302,3.502891541
750.814907,750.8146627,-1.099595666,3.503814936
755.819044,755.8187995,-1.099415302,3.504430532
760.821206,760.8209614,-1.099595666,3.505046129
765.825271,765.8250258,-1.099595666,3.505353928
770.831782,770.831537,-1.099415302,3.505969286
775.83898,775.8387354,-1.099595666,3.506584883
780.846182,780.8459372,-1.099415302,3.506892681
785.852455,785.8522098,-1.099415302,3.507816076
790.860715,790.8604698,-1.099595666,3.508431435
795.862943,795.8626984,-1.099415302,3.508739233
800.868284,800.8680389,-1.099595666,3.50935483
805.874435,805.8741898,-1.099415302,3.509970427
810.878754,810.8785087,-1.099595666,3.510586023
815.883989,815.8837437,-1.099415302,3.510893583
820.886231,820.8859857,-1.099415302,3.51150918
825.893525,825.8932807,-1.099595666,3.512432575
830.895693,830.8954477,-1.099415302,3.512432575
835.903982,835.903737,-1.099415302,3.513048172
840.908221,840.9079762,-1.099415302,3.51366353
845.910598,845.9103533,-1.099595666,3.514586926
850.914729,850.9144847,-1.099415302,3.514586926
855.914996,855.9147515,-1.099415302,3.515202522
860.923191,860.9229461,-1.099595666,3.515510321
865.929555,865.9293102,-1.099415302,3.516125679
870.937844,870.9375992,-1.099595666,3.516741276
875.942972,875.9427269,-1.099595666,3.517356873
880.945399,880.9451548,-1.099415302,3.517356873
885.949432,885.9491865,-1.099776149,3.517972469
890.956725,890.9564799,-1.099776149,3.518588066
895.960987,895.9607422,-1.099234819,3.518895626
900.96923,900.9689846,-1.099595666,3.519511223
905.973479,905.9732341,-1.099595666,3.52012682
910.981732,910.9814873,-1.099595666,3.520434618
915.986949,915.9867043,-1.099595666,3.520742416
920.992262,920.9920171,-1.099415302,3.521357775
925.997474,925.9972294,-1.099415302,3.521665573
931.002718,931.002473,-1.099595666,3.521973372
936.009929,936.0096844,-1.099415302,3.522588968
941.0183,941.018055,-1.099595666,3.523204565
946.027527,946.0272825,-1.099415302,3.523204565
951.030755,951.0305096,-1.099415302,3.523512363
956.037975,956.0377307,-1.099595666,3.524127722
961.046245,961.0460004,-1.099595666,3.524743319
966.053478,966.0532338,-1.099415302,3.524743319
971.060747,971.0605018,-1.099595666,3.525051117
976.068923,976.0686783,-1.099595666,3.525358915
981.07452,981.0742753,-1.099415302,3.525666714
986.081595,986.0813508,-1.099595666,3.526590109
991.088746,991.0885011,-1.099415302,3.526590109
996.092951,996.092706,-1.099415302,3.526897669
1001.100226,1001.099981,-1.099234819,3.527205467
1006.107451,1006.107206,-1.099595666,3.527513266
1011.114723,1011.114478,-1.099595666,3.528128862
1016.12401,1016.123765,-1.099595666,3.528128862
1021.12923,1021.128985,-1.099595666,3.528436661
1026.129528,1026.129284,-1.099595666,3.528744459
1031.129837,1031.129592,-1.099234819,3.529359818
1036.135982,1036.135737,-1.099595666,3.529667616
1041.141337,1041.141092,-1.099595666,3.529667616
1046.148505,1046.14826,-1.099415302,3.529667616
1051.153675,1051.15343,-1.099595666,3.530283213
1056.159939,1056.159694,-1.099595666,3.530591011
1061.169221,1061.168976,-1.099595666,3.530591011
1066.175473,1066.175227,-1.099415302,3.531206608
1071.181735,1071.18149,-1.099595666,3.531206608
1076.187985,1076.18774,-1.099234819,3.531206608
1081.194403,1081.194157,-1.099595666,3.531822205
1086.197472,1086.197227,-1.099595666,3.532129765
1091.205682,1091.205437,-1.099595666,3.532437563
1096.212012,1096.211767,-1.099595666,3.532437563
1101.219358,1101.219114,-1.099595666,3.532437563
1106.22647,1106.226225,-1.099595666,3.532745361
1111.232722,1111.232477,-1.099595666,3.53305316
1116.235092,1116.234848,-1.099415302,3.53305316
1121.241212,1121.240967,-1.099415302,3.533360958
1126.241494,1126.241249,-1.099595666,3.533668756
1131.246745,1131.2465,-1.099595666,3.534284353
1136.253995,1136.25375,-1.099415302,3.533976555
1141.25818,1141.257936,-1.099595666,3.534284353
1146.266468,1146.266223,-1.099595666,3.534592152
1151.274914,1151.274669,-1.099234819,3.534284353
1156.278769,1156.278524,-1.099415302,3.534899712
1161.286212,1161.285967,-1.099415302,3.534899712
1166.292466,1166.292222,-1.099595666,3.53520751
1171.297724,1171.297479,-1.099595666,3.53520751
1176.306929,1176.306684,-1.099595666,3.535515308
1181.308218,1181.307973,-1.099776149,3.535823107
1186.315468,1186.315223,-1.099415302,3.535515308
1191.319717,1191.319472,-1.099595666,3.535823107
1196.325169,1196.324924,-1.099415302,3.536130905
1201.325229,1201.324984,-1.099415302,3.536130905
1206.32848,1206.328235,-1.099595666,3.536746502
1211.333823,1211.333578,-1.099415302,3.536438704
1216.337942,1216.337697,-1.099595666,3.536746502
1221.34222,1221.341976,-1.099595666,3.5370543
1226.342572,1226.342328,-1.099595666,3.5370543
1231.34674,1231.346495,-1.099415302,3.5370543
1236.351257,1236.351013,-1.099415302,3.5370543
1241.353227,1241.352983,-1.099415302,3.53736186
1246.358465,1246.35822,-1.099595666,3.537669659
1251.36097,1251.360725,-1.099595666,3.537669659
1256.368967,1256.368722,-1.099595666,3.537977457
1261.376285,1261.37604,-1.099595666,3.537977457
1266.384547,1266.384302,-1.099595666,3.538285255
1271.39367,1271.393425,-1.099595666,3.538285255
1276.400006,1276.399761,-1.099595666,3.538593054
1281.403323,1281.403078,-1.099415302,3.538593054
1286.409476,1286.409231,-1.099415302,3.538593054
1291.413786,1291.413541,-1.099595666,3.538900852
1296.417969,1296.417724,-1.099415302,3.538900852
1301.427217,1301.426972,-1.099415302,3.539208651
1306.432544,1306.4323,-1.099595666,3.539208651
1311.437717,1311.437472,-1.099595666,3.539516449
1316.445008,1316.444763,-1.099595666,3.539516449
1321.450215,1321.44997,-1.099415302,3.539824247
1326.453513,1326.453268,-1.099415302,3.539824247
1331.453775,1331.45353,-1.099595666,3.540131807
1336.45996,1336.459715,-1.099415302,3.540439606
1341.467216,1341.466971,-1.099595666,3.540131807
1346.472408,1346.472163,-1.099595666,3.540439606
1351.481679,1351.481434,-1.099595666,3.540439606
1356.487929,1356.487684,-1.099595666,3.540747404
1361.496192,1361.495948,-1.099595666,3.540747404
1366.498464,1366.498219,-1.099595666,3.541055202
1371.505719,1371.505474,-1.099595666,3.541363001
1376.514963,1376.514718,-1.099415302,3.541363001
1381.524279,1381.524034,-1.099595666,3.541363001
1386.533316,1386.533071,-1.099415302,3.541363001
1391.536667,1391.536422,-1.099595666,3.541670799
1396.542009,1396.541764,-1.099595666,3.541978598
1401.543214,1401.542969,-1.099595666,3.541978598
1406.550529,1406.550284,-1.099595666,3.542286396
1411.555825,1411.55558,-1.099415302,3.542286396
1416.556959,1416.556714,-1.099595666,3.542901754
1421.562225,1421.561979,-1.099595666,3.542593956
1426.570522,1426.570277,-1.099415302,3.542901754
1431.578815,1431.57857,-1.099415302,3.542901754
1436.584967,1436.584722,-1.099595666,3.543209553
1441.591209,1441.590964,-1.099595666,3.543209553
1446.599578,1446.599334,-1.099595666,3.543209553
1451.604715,1451.60447,-1.099595666,3.543517351
1456.610997,1456.610752,-1.099595666,3.54382515
1461.612326,1461.612082,-1.099595666,3.54382515
1466.618437,1466.618193,-1.099595666,3.544132948
1471.618834,1471.618589,-1.099776149,3.544440746
1476.627012,1476.626768,-1.099415302,3.544132948
1481.636503,1481.636259,-1.099595666,3.544748545
1486.642532,1486.642288,-1.099415302,3.544440746
1491.643709,1491.643464,-1.099776149,3.544748545
1496.643956,1496.643711,-1.099595666,3.544748545
1501.653475,1501.65323,-1.099595666,3.545056343
1506.661593,1506.661348,-1.099415302,3.545056343
1511.669669,1511.669424,-1.099595666,3.544748545
1516.67496,1516.674715,-1.099595666,3.545056343
1521.67917,1521.678925,-1.099415302,3.545363903
1526.685465,1526.68522,-1.099415302,3.545363903
1531.691777,1531.691531,-1.099595666,3.5459795
1536.697017,1536.696772,-1.099415302,3.546287298
1541.705217,1541.704972,-1.099595666,3.546287298
1546.713434,1546.713189,-1.099595666,3.546287298
1551.719717,1551.719472,-1.099595666,3.546595097
1556.723963,1556.723718,-1.099776149,3.546902895
1561.728217,1561.727973,-1.099776149,3.547210693
1566.736481,1566.736236,-1.099595666,3.546902895
1571.738712,1571.738467,-1.099595666,3.547210693
1576.747206,1576.746961,-1.099415302,3.547210693
1581.754248,1581.754003,-1.099595666,3.547518492
1586.762465,1586.76222,-1.099595666,3.547518492
1591.769714,1591.769468,-1.099415302,3.54813385
1596.774926,1596.774681,-1.099595666,3.54782629
1601.780219,1601.779974,-1.099415302,3.54813385
1606.784431,1606.784186,-1.099595666,3.54813385
1611.790712,1611.790467,-1.099415302,3.548441648
1616.798096,1616.797851,-1.099595666,3.548749447
1621.805474,1621.805229,-1.099595666,3.548749447
1626.812554,1626.812309,-1.099415302,3.548749447
1631.819712,1631.819467,-1.099595666,3.549365044
1636.826107,1636.825862,-1.099415302,3.549057245
1641.835418,1641.835174,-1.099415302,3.549365044
1646.839506,1646.839261,-1.099595666,3.549365044
1651.844759,1651.844514,-1.099595666,3.549672842
1656.850014,1656.849769,-1.099415302,3.54998064
1661.855244,1661.854999,-1.099595666,3.549672842
1666.86346,1666.863215,-1.099595666,3.54998064
1671.868723,1671.868478,-1.099415302,3.550288439
1676.873738,1676.873494,-1.099415302,3.550288439
1681.879188,1681.878943,-1.099595666,3.550903797
1686.88742,1686.887175,-1.099415302,3.550903797
1691.895858,1691.895613,-1.099415302,3.550903797
1696.903021,1696.902777,-1.099595666,3.551211596
1701.904303,1701.904059,-1.099595666,3.551519394
1706.909462,1706.909217,-1.099595666,3.551827192
1711.914762,1711.914518,-1.099595666,3.551519394
1716.91796,1716.917714,-1.099415302,3.551827192
1721.926177,1721.925932,-1.099415302,3.551827192
1726.931488,1726.931243,-1.099595666,3.552442789
1731.937711,1731.937466,-1.099595666,3.552442789
1736.941954,1736.941709,-1.099595666,3.552750587
1741.947305,1741.947061,-1.099595666,3.552750587
1746.952488,1746.952244,-1.099595666,3.552750587
1751.956715,1751.95647,-1.099595666,3.553058386
1756.957983,1756.957738,-1.099595666,3.553365946
1761.964378,1761.964133,-1.099595666,3.553673744
1766.968491,1766.968246,-1.099595666,3.553673744
1771.976514,1771.976269,-1.099234819,3.553673744
1776.978981,1776.978736,-1.099595666,3.553981543
1781.987203,1781.986958,-1.099776149,3.554289341
1786.991488,1786.991243,-1.099595666,3.554597139
1791.997515,1791.997271,-1.099595666,3.554597139
1797.006966,1797.006721,-1.099595666,3.554597139
1802.012215,1802.01197,-1.099415302,3.554904938
1807.020454,1807.020209,-1.099595666,3.554904938
1812.027788,1812.027543,-1.099415302,3.555212736
1817.034964,1817.034719,-1.099595666,3.555520535
1822.042205,1822.04196,-1.099415302,3.555828094
1827.048484,1827.048239,-1.099415302,3.555520535
1832.048766,1832.048521,-1.099595666,3.555828094
1837.052921,1837.052676,-1.099415302,3.555828094
1842.059204,1842.058959,-1.099415302,3.556443691
1847.066477,1847.066232,-1.099776149,3.55675149
1852.076826,1852.076581,-1.099776149,3.55675149
1857.086014,1857.085769,-1.099595666,3.557059288
1862.094228,1862.093983,-1.099595666,3.55675149
1867.101451,1867.101207,-1.099595666,3.557367086
1872.103993,1872.103749,-1.099595666,3.557674885
1877.106949,1877.106703,-1.099415302,3.557674885
1882.115161,1882.114916,-1.099415302,3.557674885
1887.11844,1887.118195,-1.099595666,3.558290482
1892.124736,1892.124492,-1.099595666,3.558290482
1897.131918,1897.131673,-1.099595666,3.55890584
1902.135217,1902.134971,-1.099415302,3.558598042
1907.140489,1907.140245,-1.099595666,3.55890584
1912.146791,1912.146546,-1.099415302,3.55890584
1917.154012,1917.153767,-1.099595666,3.559213638
1922.156233,1922.155988,-1.099595666,3.559521437
1927.161234,1927.160989,-1.099595666,3.559521437
1932.166806,1932.166562,-1.099595666,3.559829235
1937.17095,1937.170705,-1.099415302,3.559829235
1942.176165,1942.17592,-1.099415302,3.560137033
1947.177539,1947.177294,-1.099415302,3.560444832
1952.182705,1952.18246,-1.099595666,3.56075263
1957.187908,1957.187663,-1.099415302,3.56075263
1962.193218,1962.192974,-1.099595666,3.561060429
1967.19748,1967.197235,-1.099595666,3.561367989
1972.205749,1972.205504,-1.099595666,3.561367989
1977.213013,1977.212768,-1.099595666,3.561983585
1982.215228,1982.214983,-1.099776149,3.561983585
1987.222712,1987.222468,-1.099595666,3.561983585
1992.231712,1992.231468,-1.099595666,3.562291384
1997.235953,1997.235708,-1.099595666,3.562599182
2002.239299,2002.239055,-1.099595666,3.562906981
2007.246457,2007.246212,-1.099415302,3.563214779
2012.253786,2012.253541,-1.099415302,3.563214779
2017.261986,2017.261742,-1.099595666,3.563830137
2022.270323,2022.270078,-1.099595666,3.563522577
2027.27549,2027.275245,-1.099595666,3.563830137
2032.283732,2032.283487,-1.099595666,3.564445734
2037.293058,2037.292813,-1.099595666,3.564445734
2042.296205,2042.29596,-1.099595666,3.564445734
2047.300575,2047.30033,-1.099595666,3.564753532
2052.304729,2052.304484,-1.099595666,3.565061331
2057.313088,2057.312843,-1.099595666,3.565061331
2062.316184,2062.315939,-1.099595666,3.565676928
2067.316411,2067.316167,-1.099415302,3.565676928
2072.321761,2072.321516,-1.099595666,3.566292524
